399.23	59.068
401.16	78.302
403.09	88.094
405.02	90.297
406.95	90.388
408.87	91.095
410.8	92.153
412.73	92.352
414.66	92.141
416.59	91.99
418.52	92.123
420.45	92.047
422.38	92.047
424.3	92.135
426.23	92.439
428.16	92.503
430.09	92.544
432.02	92.49
433.95	92.579
435.88	92.481
437.8	92.434
439.73	92.291
441.66	92.311
443.59	92.221
445.52	92.283
447.45	92.268
449.38	92.351
451.31	92.19
453.23	92.069
455.16	91.837
457.09	91.798
459.02	91.654
460.95	91.652
462.88	91.534
464.81	91.561
466.73	91.436
468.66	91.438
470.59	91.313
472.52	91.343
474.45	91.241
476.38	91.303
478.31	91.236
480.24	91.284
482.16	91.126
484.09	91.097
486.02	90.959
487.95	91.005
489.88	90.881
491.81	90.881
493.74	90.734
495.66	90.76
497.59	90.61
499.52	90.576
501.45	90.371
503.38	90.353
505.31	90.214
507.24	90.261
509.17	90.149
511.09	90.178
513.02	89.996
514.95	89.941
516.88	89.718
518.81	89.699
520.74	89.547
522.67	89.578
524.6	89.429
526.52	89.445
528.45	89.296
530.38	89.347
532.31	89.24
534.24	89.309
536.17	89.189
538.1	89.245
540.02	89.124
541.95	89.181
543.88	89.045
545.81	89.089
547.74	88.965
549.67	89.049
551.6	88.958
553.53	89.047
555.45	88.929
557.38	88.984
559.31	88.848
561.24	88.923
563.17	88.823
565.1	88.92
567.03	88.811
568.95	88.896
570.88	88.798
572.81	88.909
574.74	88.82
576.67	88.922
578.6	88.815
580.53	88.902
582.46	88.777
584.38	88.845
586.31	88.699
588.24	88.748
590.17	88.582
592.1	88.622
594.03	88.465
595.96	88.525
597.88	88.382
599.81	88.47
601.74	88.395
603.67	88.592
605.6	88.623
607.53	88.882
609.46	88.906
611.39	89.1
613.31	89.03
615.24	89.157
617.17	89.089
619.1	89.282
621.03	89.285
622.96	89.507
624.89	89.494
626.81	89.692
628.74	89.664
630.67	89.85
632.6	89.798
634.53	89.965
636.46	89.917
638.39	90.109
640.32	90.078
642.24	90.26
644.17	90.187
646.1	90.319
648.03	90.225
649.96	90.404
651.89	90.407
653.82	90.657
655.75	90.66
657.67	90.907
659.6	90.975
661.53	91.266
663.46	91.149
665.39	91.012
667.32	90.557
669.25	90.561
671.17	90.689
673.1	91.243
675.03	91.474
676.96	91.756
678.89	91.714
680.82	91.942
682.75	91.973
684.68	92.247
686.6	92.281
688.53	92.585
690.46	92.678
692.39	93.017
694.32	93.102
696.25	93.424
698.18	93.505
700.1	93.829
702.03	93.904
703.96	94.221
705.89	94.287
707.82	94.594
709.75	94.655
711.68	94.966
713.61	95.02
715.53	95.284
717.46	95.266
719.39	95.497
721.32	95.518
723.25	95.834
725.18	95.919
727.11	96.246
729.03	96.315
730.96	96.64
732.89	96.729
734.82	97.076
736.75	97.169
738.68	97.509
740.61	97.598
742.54	97.935
744.46	98.01
746.39	98.324
748.32	98.374
750.25	98.671
752.18	98.71
754.11	98.995
756.04	99.013
757.96	99.262
759.89	99.231
761.82	99.432
763.75	99.369
765.68	99.567
767.61	99.524
769.54	99.746
771.47	99.715
773.39	99.928
775.32	99.872
777.25	100.06
779.18	100.01
781.11	100.25
783.04	100.28
784.97	100.59
786.89	100.66
788.82	100.98
790.75	101.02
792.68	101.29
794.61	101.28
796.54	101.51
798.47	101.46
800.4	101.65
802.32	101.56
804.25	101.7
806.18	101.53
808.11	101.58
810.04	101.32
811.97	101.28
813.9	100.97
815.83	100.96
817.75	100.77
819.68	100.95
821.61	100.99
823.54	101.38
825.47	101.61
827.4	102.17
829.33	102.5
831.25	103.11
833.18	103.45
835.11	104.02
837.04	104.3
838.97	104.82
840.9	105.05
842.83	105.52
844.76	105.69
846.68	106.06
848.61	106.12
850.54	106.36
852.47	106.27
854.4	106.36
856.33	106.15
858.26	106.16
860.18	105.89
862.11	105.89
864.04	105.65
865.97	105.7
867.9	105.51
869.83	105.6
871.76	105.45
873.69	105.61
875.61	105.56
877.54	105.81
879.47	105.82
881.4	106.09
883.33	106.09
885.26	106.32
887.19	106.29
889.11	106.51
891.04	106.48
892.97	106.71
894.9	106.72
896.83	106.98
898.76	106.98
900.69	107.18
902.62	107.08
904.54	107.18
906.47	106.98
908.4	106.99
910.33	106.68
912.26	106.56
914.19	106.11
916.12	105.84
918.04	105.29
919.97	104.96
921.9	104.37
923.83	104.03
925.76	103.45
927.69	103.15
929.62	102.64
931.55	102.43
933.47	102.07
935.4	102.07
937.33	101.95
939.26	102.2
941.19	102.33
943.12	102.78
945.05	103.06
946.97	103.59
948.9	103.89
950.83	104.39
952.76	104.62
954.69	105.02
956.62	105.09
958.55	105.28
960.48	105.13
962.4	105.1
964.33	104.71
966.26	104.44
968.19	103.82
970.12	103.27
972.05	102.35
973.98	101.53
975.9	100.38
977.83	99.404
979.76	98.194
981.69	97.25
983.62	96.165
985.55	95.422
987.48	94.603
989.41	94.16
991.33	93.631
993.26	93.406
995.19	92.967
997.12	92.671
999.05	92.015
1000.9	91.412
1002.9	90.428
1004.8	89.521
1006.7	88.282
1008.6	87.174
1010.6	85.804
1012.5	84.642
1014.4	83.294
1016.4	82.21
1018.3	80.98
1020.2	80.036
1022.1	78.968
1024.1	78.21
1026	77.365
1027.9	76.874
1029.9	76.34
1031.8	76.18
1033.7	75.973
1035.6	76.107
1037.6	76.145
1039.5	76.454
1041.4	76.589
1043.4	76.91
1045.3	76.993
1047.2	77.229
1049.2	77.228
1051.1	77.403
1053	77.374
1054.9	77.547
1056.9	77.54
1058.8	77.747
1060.7	77.78
1062.7	78.016
1064.6	78.062
1066.5	78.289
1068.4	78.315
1070.4	78.528
1072.3	78.573
1074.2	78.85
1076.2	79.015
1078.1	79.464
1080	79.842
1081.9	80.514
1083.9	81.089
1085.8	81.89
1087.7	82.507
1089.7	83.258
1091.6	83.758
1093.5	84.348
1095.4	84.675
1097.4	85.095
1099.3	85.28
1101.2	85.599
1103.2	85.729
1105.1	86.021
1107	86.136
1108.9	86.409
1110.9	86.496
1112.8	86.719
1114.7	86.737
1116.7	86.879
1118.6	86.835
1120.5	86.956
1122.4	86.938
1124.4	87.119
1126.3	87.184
1128.2	87.456
1130.2	87.623
1132.1	88.004
1134	88.287
1135.9	88.783
1137.9	89.187
1139.8	89.804
1141.7	90.325
1143.7	91.028
1145.6	91.578
1147.5	92.235
1149.4	92.671
1151.4	93.153
1153.3	93.38
1155.2	93.652
1157.2	93.725
1159.1	93.951
1161	94.114
1162.9	94.538
1164.9	94.945
1166.8	95.58
1168.7	96.123
1170.7	96.803
1172.6	97.324
1174.5	97.934
1176.4	98.354
1178.4	98.837
1180.3	99.119
1182.2	99.462
1184.2	99.622
1186.1	99.862
1188	99.936
1189.9	100.09
1191.9	100.08
1193.8	100.16
1195.7	100.12
1197.7	100.21
1199.6	100.19
1201.5	100.29
1203.4	100.27
1205.4	100.36
1207.3	100.33
1209.2	100.39
1211.2	100.33
1213.1	100.37
1215	100.3
1216.9	100.34
1218.9	100.3
1220.8	100.39
1222.7	100.39
1224.7	100.49
1226.6	100.49
1228.5	100.55
1230.4	100.47
1232.4	100.44
1234.3	100.28
1236.2	100.19
1238.2	99.989
1240.1	99.876
1242	99.671
1243.9	99.564
1245.9	99.376
1247.8	99.286
1249.7	99.112
1251.7	99.016
1253.6	98.814
1255.5	98.671
1257.4	98.429
1259.4	98.289
1261.3	98.132
1263.2	98.144
1265.2	98.158
1267.1	98.294
1269	98.367
1270.9	98.515
1272.9	98.591
1274.8	98.735
1276.7	98.797
1278.7	98.916
1280.6	98.959
1282.5	99.065
1284.4	99.1
1286.4	99.2
1288.3	99.249
1290.2	99.384
1292.2	99.479
1294.1	99.64
1296	99.736
1297.9	99.876
1299.9	99.94
1301.8	100.03
1303.7	100.03
1305.7	100.07
1307.6	100.02
1309.5	100.01
1311.5	99.948
1313.4	99.915
1315.3	99.835
1317.2	99.812
1319.2	99.77
1321.1	99.807
1323	99.823
1325	99.873
1326.9	99.855
1328.8	99.86
1330.7	99.831
1332.7	99.834
1334.6	99.758
1336.5	99.665
1338.5	99.55
1340.4	99.563
1342.3	99.662
1344.2	99.843
1346.2	99.962
1348.1	100.03
1350	100.02
1352	100.01
1353.9	99.968
1355.8	99.931
1357.7	99.826
1359.7	99.676
1361.6	99.47
1363.5	99.312
1365.5	99.209
1367.4	99.164
1369.3	99.073
1371.2	98.922
1373.2	98.717
1375.1	98.548
1377	98.432
1379	98.36
1380.9	98.249
1382.8	98.069
1384.7	97.836
1386.7	97.635
1388.6	97.491
1390.5	97.343
1392.5	97.078
1394.4	96.674
1396.3	96.232
1398.2	95.882
1400.2	95.675
1402.1	95.541
1404	95.409
1406	95.247
1407.9	95.111
1409.8	95.02
1411.7	94.974
1413.7	94.886
1415.6	94.739
1417.5	94.544
1419.5	94.433
1421.4	94.456
1423.3	94.629
1425.2	94.831
1427.2	95.027
1429.1	95.174
1431	95.34
1433	95.479
1434.9	95.625
1436.8	95.765
1438.7	96.027
1440.7	96.368
1442.6	96.732
1444.5	96.94
1446.5	97.069
1448.4	97.193
1450.3	97.428
1452.2	97.596
1454.2	97.654
1456.1	97.636
1458	97.852
1460	98.341
1461.9	99.054
1463.8	99.727
1465.7	100.36
1467.7	100.89
1469.6	101.39
1471.5	101.78
1473.5	102.24
1475.4	102.8
1477.3	103.55
1479.2	104.3
1481.2	105
1483.1	105.47
1485	105.78
1487	105.88
1488.9	106.04
1490.8	106.31
1492.7	106.77
1494.7	107.1
1496.6	107.33
1498.5	107.5
1500.5	107.83
1502.4	108.02
1504.3	107.92
1506.2	107.47
1508.2	107.19
1510.1	107.29
1512	107.74
1514	108.02
1515.9	108.05
1517.8	107.79
1519.7	107.56
1521.7	107.36
1523.6	107.36
1525.5	107.46
1527.5	107.72
1529.4	107.87
1531.3	107.98
1533.2	107.96
1535.2	107.95
1537.1	107.66
1539	107.17
1541	106.53
1542.9	106.27
1544.8	106.34
1546.7	106.63
1548.7	106.67
1550.6	106.55
1552.5	106.19
1554.5	105.72
1556.4	104.91
1558.3	104.06
1560.2	103.38
1562.2	103.21
1564.1	103.14
1566	102.97
1568	102.42
1569.9	101.84
1571.8	101.18
1573.7	100.59
1575.7	99.819
1577.6	99.135
1579.5	98.484
1581.5	98.034
1583.4	97.464
1585.3	96.868
1587.3	96.096
1589.2	95.408
1591.1	94.64
1593	93.97
1595	93.215
1596.9	92.587
1598.8	91.898
1600.8	91.328
1602.7	90.674
1604.6	90.144
1606.5	89.567
1608.5	89.161
1610.4	88.702
1612.3	88.327
1614.3	87.78
1616.2	87.295
1618.1	86.772
1620	86.479
1622	86.162
1623.9	85.949
1625.8	85.658
1627.8	85.605
1629.7	85.59
1631.6	85.671
1633.5	85.504
1635.5	85.407
1637.4	85.418
1639.3	85.852
1641.3	86.311
1643.2	86.781
1645.1	87.016
1647	87.374
1649	87.707
1650.9	88.195
1652.8	88.607
1654.8	89.271
1656.7	90.019
1658.6	90.972
1660.5	91.727
1662.5	92.451
1664.4	92.982
1666.3	93.615
1668.3	94.112
1670.2	94.701
1672.1	95.212
1674	95.951
1676	96.664
1677.9	97.471
1679.8	98.016
1681.8	98.522
1683.7	98.866
1685.6	99.463
1687.5	100.16
1689.5	101.12
1691.4	101.89
1693.3	102.53
1695.3	102.79
1697.2	103.05
1699.1	103.25
1701	103.71
1703	104.13
1704.9	104.7
1706.8	105.16
1708.8	105.76
1710.7	106.16
1712.6	106.47
1714.5	106.43
1716.5	106.47
1718.4	106.59
1720.3	107.12
1722.3	107.64
1724.2	108.23
1726.1	108.53
1728	108.79
1730	108.77
1731.9	108.8
1733.8	108.77
1735.8	109.07
1737.7	109.41
1739.6	109.93
1741.5	110.29
1743.5	110.73
1745.4	111.01
1747.3	111.4
1749.3	111.68
1751.2	112.19
1753.1	112.7
1755	113.34
1757	113.73
1758.9	114.08
1760.8	114.25
1762.8	114.61
1764.7	114.86
1766.6	115.17
1768.5	115.16
1770.5	115.15
1772.4	115.06
1774.3	115.28
1776.3	115.54
1778.2	115.94
1780.1	116.09
1782	116.29
1784	116.39
1785.9	116.66
1787.8	116.72
1789.8	116.76
1791.7	116.6
1793.6	116.67
1795.5	116.74
1797.5	116.99
1799.4	117.07
1801.3	117.25
1803.3	117.33
1805.2	117.58
1807.1	117.66
1809	117.79
1811	117.75
1812.9	117.9
1814.8	117.98
1816.8	118.19
1818.7	118.22
1820.6	118.34
1822.5	118.29
1824.5	118.32
1826.4	118.17
1828.3	118.16
1830.3	118.11
1832.2	118.29
1834.1	118.38
1836	118.61
1838	118.66
1839.9	118.74
1841.8	118.59
1843.8	118.52
1845.7	118.39
1847.6	118.53
1849.6	118.65
1851.5	118.91
1853.4	118.97
1855.3	119.08
1857.3	119.02
1859.2	119.1
1861.1	119.07
1863.1	119.14
1865	118.99
1866.9	118.9
1868.8	118.72
1870.8	118.81
1872.7	118.92
1874.6	119.18
1876.6	119.24
1878.5	119.33
1880.4	119.27
1882.3	119.35
1884.3	119.3
1886.2	119.33
1888.1	119.22
1890.1	119.24
1892	119.18
1893.9	119.26
1895.8	119.23
1897.8	119.33
1899.7	119.31
1901.6	119.41
1903.6	119.35
1905.5	119.38
1907.4	119.26
1909.3	119.28
1911.3	119.23
1913.2	119.31
1915.1	119.25
1917.1	119.26
1919	119.11
1920.9	119.11
1922.8	119.04
1924.8	119.15
1926.7	119.17
1928.6	119.28
1930.6	119.25
1932.5	119.29
1934.4	119.23
1936.3	119.28
1938.3	119.2
1940.2	119.17
1942.1	119
1944.1	118.99
1946	118.94
1947.9	119.05
1949.8	119.04
1951.8	119.09
1953.7	119.01
1955.6	119.04
1957.6	118.97
1959.5	119.01
1961.4	118.94
1963.3	118.94
1965.3	118.82
1967.2	118.81
1969.1	118.73
1971.1	118.8
1973	118.77
1974.9	118.82
1976.8	118.76
1978.8	118.78
1980.7	118.7
1982.6	118.72
1984.6	118.64
1986.5	118.64
1988.4	118.52
1990.3	118.48
1992.3	118.38
1994.2	118.41
1996.1	118.38
1998.1	118.45
2000	118.39
2001.9	118.41
2003.8	118.32
2005.8	118.33
2007.7	118.24
2009.6	118.25
2011.6	118.16
2013.5	118.15
2015.4	118.03
2017.3	118.01
2019.3	117.92
2021.2	117.95
2023.1	117.89
2025.1	117.91
2027	117.84
2028.9	117.85
2030.8	117.78
2032.8	117.79
2034.7	117.71
2036.6	117.71
2038.6	117.63
2040.5	117.63
2042.4	117.56
2044.3	117.57
2046.3	117.52
2048.2	117.54
2050.1	117.48
2052.1	117.49
2054	117.43
2055.9	117.43
2057.8	117.37
2059.8	117.38
2061.7	117.31
2063.6	117.31
2065.6	117.24
2067.5	117.25
2069.4	117.21
2071.3	117.23
2073.3	117.18
2075.2	117.2
2077.1	117.15
2079.1	117.17
2081	117.12
2082.9	117.14
2084.9	117.08
2086.8	117.09
2088.7	117.03
2090.6	117.05
2092.6	117.01
2094.5	117.03
2096.4	117
2098.4	117.01
2100.3	116.97
2102.2	116.98
2104.1	116.95
2106.1	116.97
2108	116.93
2109.9	116.95
2111.9	116.91
2113.8	116.93
2115.7	116.89
2117.6	116.91
2119.6	116.87
2121.5	116.89
2123.4	116.86
2125.4	116.87
2127.3	116.84
2129.2	116.85
2131.1	116.82
2133.1	116.83
2135	116.8
2136.9	116.81
2138.9	116.78
2140.8	116.79
2142.7	116.76
2144.6	116.77
2146.6	116.74
2148.5	116.75
2150.4	116.72
2152.4	116.73
2154.3	116.7
2156.2	116.71
2158.1	116.68
2160.1	116.69
2162	116.67
2163.9	116.67
2165.9	116.65
2167.8	116.65
2169.7	116.63
2171.6	116.63
2173.6	116.61
2175.5	116.61
2177.4	116.59
2179.4	116.59
2181.3	116.57
2183.2	116.57
2185.1	116.55
2187.1	116.55
2189	116.53
2190.9	116.53
2192.9	116.51
2194.8	116.51
2196.7	116.5
2198.6	116.49
2200.6	116.48
2202.5	116.47
2204.4	116.46
2206.4	116.45
2208.3	116.44
2210.2	116.43
2212.1	116.42
2214.1	116.41
2216	116.4
2217.9	116.39
2219.9	116.38
2221.8	116.37
2223.7	116.36
2225.6	116.35
2227.6	116.35
2229.5	116.33
2231.4	116.33
2233.4	116.31
2235.3	116.31
2237.2	116.29
2239.1	116.29
2241.1	116.27
2243	116.27
2244.9	116.25
2246.9	116.25
2248.8	116.23
2250.7	116.23
2252.6	116.21
2254.6	116.21
2256.5	116.2
2258.4	116.19
2260.4	116.18
2262.3	116.18
2264.2	116.16
2266.1	116.16
2268.1	116.14
2270	116.14
2271.9	116.12
2273.9	116.12
2275.8	116.1
2277.7	116.1
2279.6	116.08
2281.6	116.08
2283.5	116.06
2285.4	116.06
2287.4	116.04
2289.3	116.04
2291.2	116.02
2293.1	116.02
2295.1	116
2297	116.01
2298.9	115.98
2300.9	115.99
2302.8	115.96
2304.7	115.97
2306.6	115.94
2308.6	115.95
2310.5	115.92
2312.4	115.93
2314.4	115.9
2316.3	115.91
2318.2	115.88
2320.1	115.89
2322.1	115.86
2324	115.87
2325.9	115.84
2327.9	115.85
2329.8	115.82
2331.7	115.83
2333.6	115.8
2335.6	115.82
2337.5	115.78
2339.4	115.8
2341.4	115.76
2343.3	115.78
2345.2	115.74
2347.2	115.76
2349.1	115.72
2351	115.74
2352.9	115.7
2354.9	115.72
2356.8	115.68
2358.7	115.7
2360.7	115.66
2362.6	115.68
2364.5	115.64
2366.4	115.66
2368.4	115.62
2370.3	115.64
2372.2	115.6
2374.2	115.63
2376.1	115.58
2378	115.61
2379.9	115.56
2381.9	115.59
2383.8	115.54
2385.7	115.57
2387.7	115.52
2389.6	115.55
2391.5	115.5
2393.4	115.53
2395.4	115.48
2397.3	115.51
2399.2	115.46
2401.2	115.49
2403.1	115.44
2405	115.47
2406.9	115.42
2408.9	115.45
2410.8	115.4
2412.7	115.43
2414.7	115.38
2416.6	115.42
2418.5	115.36
2420.4	115.4
2422.4	115.34
2424.3	115.38
2426.2	115.32
2428.2	115.36
2430.1	115.3
2432	115.34
2433.9	115.28
2435.9	115.32
2437.8	115.26
2439.7	115.3
2441.7	115.24
2443.6	115.28
2445.5	115.22
2447.4	115.26
2449.4	115.2
2451.3	115.24
2453.2	115.18
2455.2	115.22
2457.1	115.16
2459	115.2
2460.9	115.14
2462.9	115.18
2464.8	115.12
2466.7	115.16
2468.7	115.1
2470.6	115.14
2472.5	115.08
2474.4	115.12
2476.4	115.06
2478.3	115.1
2480.2	115.04
2482.2	115.08
2484.1	115.01
2486	115.05
2487.9	114.99
2489.9	115.03
2491.8	114.96
2493.7	114.98
2495.7	114.89
2497.6	114.9
2499.5	114.8
2501.4	114.8
2503.4	114.69
2505.3	114.7
2507.2	114.59
2509.2	114.59
2511.1	114.49
2513	114.49
2514.9	114.38
2516.9	114.38
2518.8	114.26
2520.7	114.27
2522.7	114.16
2524.6	114.16
2526.5	114.05
2528.4	114.04
2530.4	113.93
2532.3	113.93
2534.2	113.82
2536.2	113.82
2538.1	113.71
2540	113.71
2541.9	113.59
2543.9	113.6
2545.8	113.49
2547.7	113.5
2549.7	113.38
2551.6	113.38
2553.5	113.26
2555.4	113.26
2557.4	113.13
2559.3	113.14
2561.2	113.02
2563.2	113.02
2565.1	112.9
2567	112.9
2568.9	112.79
2570.9	112.79
2572.8	112.67
2574.7	112.66
2576.7	112.53
2578.6	112.53
2580.5	112.41
2582.4	112.41
2584.4	112.29
2586.3	112.28
2588.2	112.15
2590.2	112.14
2592.1	112
2594	111.99
2595.9	111.85
2597.9	111.84
2599.8	111.71
2601.7	111.7
2603.7	111.57
2605.6	111.56
2607.5	111.42
2609.4	111.41
2611.4	111.26
2613.3	111.25
2615.2	111.11
2617.2	111.11
2619.1	110.96
2621	110.94
2623	110.79
2624.9	110.78
2626.8	110.64
2628.7	110.63
2630.7	110.48
2632.6	110.45
2634.5	110.3
2636.5	110.29
2638.4	110.15
2640.3	110.14
2642.2	109.99
2644.2	109.98
2646.1	109.83
2648	109.81
2650	109.66
2651.9	109.65
2653.8	109.5
2655.7	109.48
2657.7	109.33
2659.6	109.31
2661.5	109.17
2663.5	109.16
2665.4	109.03
2667.3	109.02
2669.2	108.87
2671.2	108.86
2673.1	108.72
2675	108.7
2677	108.56
2678.9	108.55
2680.8	108.42
2682.7	108.41
2684.7	108.28
2686.6	108.27
2688.5	108.14
2690.5	108.14
2692.4	108
2694.3	108
2696.2	107.87
2698.2	107.87
2700.1	107.73
2702	107.73
2704	107.6
2705.9	107.6
2707.8	107.47
2709.7	107.46
2711.7	107.32
2713.6	107.31
2715.5	107.18
2717.5	107.18
2719.4	107.05
2721.3	107.05
2723.2	106.92
2725.2	106.91
2727.1	106.78
2729	106.78
2731	106.66
2732.9	106.65
2734.8	106.52
2736.7	106.52
2738.7	106.4
2740.6	106.41
2742.5	106.29
2744.5	106.29
2746.4	106.15
2748.3	106.14
2750.2	106.01
2752.2	106
2754.1	105.88
2756	105.88
2758	105.76
2759.9	105.75
2761.8	105.62
2763.7	105.6
2765.7	105.46
2767.6	105.44
2769.5	105.31
2771.5	105.3
2773.4	105.18
2775.3	105.17
2777.2	105.04
2779.2	105.01
2781.1	104.87
2783	104.85
2785	104.71
2786.9	104.68
2788.8	104.53
2790.7	104.5
2792.7	104.36
2794.6	104.32
2796.5	104.18
2798.5	104.14
2800.4	103.98
2802.3	103.92
2804.2	103.76
2806.2	103.71
2808.1	103.55
2810	103.49
2812	103.32
2813.9	103.25
2815.8	103.07
2817.7	103
2819.7	102.81
2821.6	102.72
2823.5	102.53
2825.5	102.43
2827.4	102.22
2829.3	102.11
2831.2	101.88
2833.2	101.74
2835.1	101.49
2837	101.32
2839	101.03
2840.9	100.8
2842.8	100.43
2844.7	100.1
2846.7	99.65
2848.6	99.294
2850.5	98.892
2852.5	98.67
2854.4	98.454
2856.3	98.413
2858.2	98.327
2860.2	98.341
2862.1	98.245
2864	98.203
2866	98.029
2867.9	97.901
2869.8	97.653
2871.7	97.479
2873.7	97.225
2875.6	97.069
2877.5	96.836
2879.5	96.686
2881.4	96.455
2883.3	96.309
2885.2	96.09
2887.2	95.958
2889.1	95.751
2891	95.632
2893	95.446
2894.9	95.349
2896.8	95.179
2898.8	95.079
2900.7	94.894
2902.6	94.772
2904.5	94.564
2906.5	94.406
2908.4	94.134
2910.3	93.871
2912.3	93.471
2914.2	93.087
2916.1	92.611
2918	92.214
2920	91.795
2921.9	91.507
2923.8	91.235
2925.8	91.116
2927.7	91.023
2929.6	91.065
2931.5	91.102
2933.5	91.239
2935.4	91.35
2937.3	91.549
2939.3	91.717
2941.2	91.956
2943.1	92.147
2945	92.388
2947	92.561
2948.9	92.764
2950.8	92.893
2952.8	93.058
2954.7	93.173
2956.6	93.349
2958.5	93.496
2960.5	93.713
2962.4	93.909
2964.3	94.177
2966.3	94.425
2968.2	94.725
2970.1	94.98
2972	95.26
2974	95.48
2975.9	95.712
2977.8	95.876
2979.8	96.043
2981.7	96.148
2983.6	96.264
2985.5	96.329
2987.5	96.406
2989.4	96.433
2991.3	96.469
2993.3	96.456
2995.2	96.45
2997.1	96.396
2999	96.347
3001	96.253
3002.9	96.167
3004.8	96.051
3006.8	95.953
3008.7	95.829
3010.6	95.712
3012.5	95.564
3014.5	95.425
3016.4	95.27
3018.3	95.128
3020.3	94.97
3022.2	94.819
3024.1	94.651
3026	94.481
3028	94.284
3029.9	94.081
3031.8	93.871
3033.8	93.676
3035.7	93.488
3037.6	93.305
3039.5	93.116
3041.5	92.925
3043.4	92.731
3045.3	92.528
3047.3	92.319
3049.2	92.099
3051.1	91.882
3053	91.656
3055	91.432
3056.9	91.196
3058.8	90.973
3060.8	90.743
3062.7	90.519
3064.6	90.271
3066.5	90.031
3068.5	89.781
3070.4	89.557
3072.3	89.315
3074.3	89.082
3076.2	88.815
3078.1	88.565
3080	88.296
3082	88.056
3083.9	87.793
3085.8	87.552
3087.8	87.276
3089.7	87.021
3091.6	86.728
3093.5	86.464
3095.5	86.167
3097.4	85.905
3099.3	85.607
3101.3	85.342
3103.2	85.036
3105.1	84.766
3107	84.457
3109	84.195
3110.9	83.891
3112.8	83.627
3114.8	83.308
3116.7	83.029
3118.6	82.698
3120.5	82.416
3122.5	82.087
3124.4	81.815
3126.3	81.495
3128.3	81.227
3130.2	80.893
3132.1	80.604
3134	80.255
3136	79.973
3137.9	79.639
3139.8	79.365
3141.8	79.02
3143.7	78.73
3145.6	78.365
3147.5	78.062
3149.5	77.688
3151.4	77.387
3153.3	77.021
3155.3	76.73
3157.2	76.361
3159.1	76.055
3161.1	75.664
3163	75.343
3164.9	74.947
3166.8	74.639
3168.8	74.26
3170.7	73.965
3172.6	73.58
3174.6	73.261
3176.5	72.841
3178.4	72.505
3180.3	72.094
3182.3	71.791
3184.2	71.404
3186.1	71.098
3188.1	70.685
3190	70.362
3191.9	69.948
3193.8	69.638
3195.8	69.229
3197.7	68.919
3199.6	68.512
3201.6	68.213
3203.5	67.817
3205.4	67.527
3207.3	67.128
3209.3	66.833
3211.2	66.428
3213.1	66.135
3215.1	65.737
3217	65.458
3218.9	65.071
3220.8	64.804
3222.8	64.423
3224.7	64.158
3226.6	63.772
3228.6	63.508
3230.5	63.131
3232.4	62.885
3234.3	62.52
3236.3	62.282
3238.2	61.921
3240.1	61.691
3242.1	61.338
3244	61.115
3245.9	60.764
3247.8	60.552
3249.8	60.215
3251.7	60.019
3253.6	59.687
3255.6	59.49
3257.5	59.154
3259.4	58.962
3261.3	58.635
3263.3	58.457
3265.2	58.142
3267.1	57.973
3269.1	57.659
3271	57.488
3272.9	57.164
3274.8	56.99
3276.8	56.672
3278.7	56.515
3280.6	56.208
3282.6	56.052
3284.5	55.734
3286.4	55.566
3288.3	55.237
3290.3	55.066
3292.2	54.737
3294.1	54.575
3296.1	54.256
3298	54.103
3299.9	53.783
3301.8	53.625
3303.8	53.293
3305.7	53.124
3307.6	52.779
3309.6	52.606
3311.5	52.266
3313.4	52.108
3315.3	51.778
3317.3	51.62
3319.2	51.279
3321.1	51.112
3323.1	50.764
3325	50.595
3326.9	50.249
3328.8	50.089
3330.8	49.747
3332.7	49.584
3334.6	49.229
3336.6	49.058
3338.5	48.7
3340.4	48.537
3342.3	48.193
3344.3	48.05
3346.2	47.719
3348.1	47.58
3350.1	47.244
3352	47.107
3353.9	46.777
3355.8	46.646
3357.8	46.314
3359.7	46.183
3361.6	45.858
3363.6	45.745
3365.5	45.435
3367.4	45.335
3369.3	45.038
3371.3	44.959
3373.2	44.684
3375.1	44.626
3377.1	44.365
3379	44.322
3380.9	44.076
3382.8	44.046
3384.8	43.805
3386.7	43.785
3388.6	43.563
3390.6	43.572
3392.5	43.375
3394.4	43.403
3396.3	43.218
3398.3	43.258
3400.2	43.081
3402.1	43.129
3404.1	42.965
3406	43.038
3407.9	42.897
3409.8	42.985
3411.8	42.851
3413.7	42.951
3415.6	42.831
3417.6	42.943
3419.5	42.821
3421.4	42.936
3423.4	42.834
3425.3	42.982
3427.2	42.905
3429.1	43.065
3431.1	43
3433	43.191
3434.9	43.162
3436.9	43.382
3438.8	43.363
3440.7	43.584
3442.6	43.564
3444.6	43.787
3446.5	43.775
3448.4	44.026
3450.4	44.059
3452.3	44.359
3454.2	44.424
3456.1	44.737
3458.1	44.802
3460	45.117
3461.9	45.187
3463.9	45.512
3465.8	45.596
3467.7	45.939
3469.6	46.032
3471.6	46.377
3473.5	46.47
3475.4	46.821
3477.4	46.923
3479.3	47.283
3481.2	47.393
3483.1	47.774
3485.1	47.916
3487	48.336
3488.9	48.503
3490.9	48.926
3492.8	49.08
3494.7	49.496
3496.6	49.654
3498.6	50.072
3500.5	50.218
3502.4	50.629
3504.4	50.797
3506.3	51.255
3508.2	51.464
3510.1	51.943
3512.1	52.165
3514	52.668
3515.9	52.91
3517.9	53.41
3519.8	53.617
3521.7	54.07
3523.6	54.239
3525.6	54.687
3527.5	54.902
3529.4	55.444
3531.4	55.747
3533.3	56.32
3535.2	56.6
3537.1	57.152
3539.1	57.435
3541	57.98
3542.9	58.21
3544.9	58.694
3546.8	58.924
3548.7	59.49
3550.6	59.826
3552.6	60.456
3554.5	60.805
3556.4	61.439
3558.4	61.804
3560.3	62.433
3562.2	62.716
3564.1	63.195
3566.1	63.374
3568	63.935
3569.9	64.378
3571.9	65.203
3573.8	65.713
3575.7	66.416
3577.6	66.8
3579.6	67.504
3581.5	67.929
3583.4	68.557
3585.4	68.804
3587.3	69.351
3589.2	69.737
3591.1	70.521
3593.1	71.018
3595	71.722
3596.9	72.089
3598.9	72.782
3600.8	73.273
3602.7	74.103
3604.6	74.619
3606.6	75.348
3608.5	75.733
3610.4	76.416
3612.4	76.854
3614.3	77.584
3616.2	77.968
3618.1	78.615
3620.1	79.056
3622	79.924
3623.9	80.523
3625.9	81.253
3627.8	81.508
3629.7	82.057
3631.6	82.524
3633.6	83.486
3635.5	84.181
3637.4	85.065
3639.4	85.602
3641.3	86.449
3643.2	86.94
3645.1	87.48
3647.1	87.472
3649	87.757
3650.9	88.049
3652.9	88.964
3654.8	89.677
3656.7	90.542
3658.6	90.983
3660.6	91.727
3662.5	92.224
3664.4	92.927
3666.4	93.133
3668.3	93.463
3670.2	93.452
3672.1	93.74
3674.1	93.731
3676	94.044
3677.9	94.224
3679.9	94.938
3681.8	95.502
3683.7	96.243
3685.6	96.367
3687.6	96.465
3689.5	96.184
3691.4	96.383
3693.4	96.593
3695.3	97.263
3697.2	97.551
3699.2	97.898
3701.1	97.82
3703	98.091
3704.9	98.165
3706.9	98.459
3708.8	98.26
3710.7	98.254
3712.7	98.113
3714.6	98.527
3716.5	98.771
3718.4	99.175
3720.4	99.041
3722.3	99.034
3724.2	98.783
3726.2	99.02
3728.1	99.125
3730	99.435
3731.9	99.165
3733.9	98.978
3735.8	98.645
3737.7	98.98
3739.7	99.288
3741.6	99.808
3743.5	99.776
3745.4	99.824
3747.4	99.531
3749.3	99.559
3751.2	99.418
3753.2	99.744
3755.1	99.938
3757	100.41
3758.9	100.5
3760.9	100.81
3762.8	100.85
3764.7	101.15
3766.7	101.05
3768.6	101.14
3770.5	101
3772.4	101.3
3774.4	101.37
3776.3	101.63
3778.2	101.46
3780.2	101.51
3782.1	101.34
3784	101.52
3785.9	101.47
3787.9	101.71
3789.8	101.68
3791.7	101.92
3793.7	101.82
3795.6	101.86
3797.5	101.53
3799.4	101.44
3801.4	101.15
3803.3	101.24
3805.2	101.17
3807.2	101.47
3809.1	101.57
3811	101.94
3812.9	101.95
3814.9	102.03
3816.8	101.66
3818.7	101.48
3820.7	101.12
3822.6	101.24
3824.5	101.27
3826.4	101.64
3828.4	101.7
3830.3	101.96
3832.2	101.84
3834.2	101.83
3836.1	101.45
3838	101.31
3839.9	101.01
3841.9	101.16
3843.8	101.28
3845.7	101.8
3847.7	101.99
3849.6	102.07
3851.5	101.49
3853.4	101.09
3855.4	100.79
3857.3	101.19
3859.2	101.5
3861.2	101.85
3863.1	101.69
3865	101.69
3866.9	101.5
3868.9	101.56
3870.8	101.34
3872.7	101.43
3874.7	101.44
3876.6	101.8
3878.5	101.82
3880.4	101.88
3882.4	101.61
3884.3	101.66
3886.2	101.59
3888.2	101.74
3890.1	101.59
3892	101.67
3893.9	101.61
3895.9	101.83
3897.8	101.72
3899.7	101.67
3901.7	101.27
3903.6	101.18
3905.5	101.09
3907.4	101.45
3909.4	101.67
3911.3	102.01
3913.2	101.93
3915.2	101.94
3917.1	101.68
3919	101.67
3920.9	101.49
3922.9	101.59
3924.8	101.49
3926.7	101.61
3928.7	101.46
3930.6	101.51
3932.5	101.38
3934.4	101.51
3936.4	101.47
3938.3	101.64
3940.2	101.52
3942.2	101.52
3944.1	101.3
3946	101.35
3947.9	101.24
3949.9	101.31
3951.8	101.16
3953.7	101.26
3955.7	101.2
3957.6	101.26
3959.5	101.05
3961.5	101.07
3963.4	100.98
3965.3	101.04
3967.2	100.84
3969.2	100.86
3971.1	100.75
3973	100.74
3975	100.43
3976.9	100.42
3978.8	100.34
3980.7	100.26
3982.7	99.767
3984.6	99.609
3986.5	99.519
3988.5	99.182
3990.4	97.938
3992.3	97.209
3994.2	97.144
3996.2	94.954
3998.1	84.527
4000	63.92
