399.23	60.461
401.16	80.072
403.09	90.065
405.02	92.313
406.95	92.442
408.87	93.151
410.8	94.236
412.73	94.507
414.66	94.537
416.59	94.708
418.52	95.155
420.45	95.222
422.38	95.261
424.3	95.311
426.23	95.607
428.16	95.647
430.09	95.704
432.02	95.668
433.95	95.837
435.88	95.826
437.8	95.914
439.73	95.883
441.66	96.006
443.59	95.928
445.52	95.967
447.45	95.899
449.38	96.006
451.31	95.915
453.23	95.937
455.16	95.833
457.09	95.933
459.02	95.883
460.95	95.98
462.88	95.918
464.81	96.02
466.73	95.949
468.66	96.042
470.59	95.99
472.52	96.106
474.45	96.03
476.38	96.104
478.31	96.011
480.24	96.083
482.16	95.967
484.09	96.031
486.02	95.958
487.95	96.084
489.88	96.021
491.81	96.118
493.74	96.036
495.66	96.129
497.59	96.018
499.52	96.067
501.45	95.935
503.38	95.998
505.31	95.881
507.24	95.956
509.17	95.857
511.09	95.951
513.02	95.844
514.95	95.921
516.88	95.811
518.81	95.9
520.74	95.795
522.67	95.889
524.6	95.797
526.52	95.903
528.45	95.803
530.38	95.905
532.31	95.821
534.24	95.939
536.17	95.837
538.1	95.929
540.02	95.828
541.95	95.936
543.88	95.821
545.81	95.899
547.74	95.782
549.67	95.898
551.6	95.808
553.53	95.911
555.45	95.79
557.38	95.877
559.31	95.744
561.24	95.821
563.17	95.701
565.1	95.831
567.03	95.767
568.95	95.923
570.88	95.853
572.81	95.998
574.74	95.908
576.67	96.018
578.6	95.894
580.53	96.003
582.46	95.9
584.38	96.022
586.31	95.903
588.24	96.004
590.17	95.88
592.1	95.988
594.03	95.863
595.96	95.962
597.88	95.832
599.81	95.941
601.74	95.821
603.67	95.938
605.6	95.836
607.53	95.988
609.46	95.909
611.39	96.045
613.31	95.916
615.24	96.014
617.17	95.886
619.1	96.016
621.03	95.914
622.96	96.046
624.89	95.935
626.81	96.071
628.74	95.978
630.67	96.138
632.6	96.058
634.53	96.219
636.46	96.136
638.39	96.305
640.32	96.234
642.24	96.407
644.17	96.315
646.1	96.46
648.03	96.361
649.96	96.53
651.89	96.457
653.82	96.626
655.75	96.525
657.67	96.671
659.6	96.576
661.53	96.738
663.46	96.621
665.39	96.721
667.32	96.557
669.25	96.681
671.17	96.598
673.1	96.794
675.03	96.727
676.96	96.905
678.89	96.822
680.82	96.992
682.75	96.892
684.68	97.044
686.6	96.94
688.53	97.105
690.46	97.013
692.39	97.187
694.32	97.113
696.25	97.317
698.18	97.267
700.1	97.476
702.03	97.416
703.96	97.619
705.89	97.559
707.82	97.761
709.75	97.693
711.68	97.881
713.61	97.796
715.53	97.968
717.46	97.87
719.39	98.035
721.32	97.936
723.25	98.112
725.18	98.04
727.11	98.252
729.03	98.204
730.96	98.414
732.89	98.341
734.82	98.524
736.75	98.44
738.68	98.632
740.61	98.562
742.54	98.762
744.46	98.69
746.39	98.876
748.32	98.779
750.25	98.934
752.18	98.811
754.11	98.961
756.04	98.847
757.96	98.995
759.89	98.852
761.82	98.964
763.75	98.815
765.68	98.969
767.61	98.892
769.54	99.11
771.47	99.06
773.39	99.265
775.32	99.177
777.25	99.343
779.18	99.229
781.11	99.38
783.04	99.26
784.97	99.416
786.89	99.306
788.82	99.462
790.75	99.334
792.68	99.473
794.61	99.348
796.54	99.501
798.47	99.379
800.4	99.523
802.32	99.407
804.25	99.58
806.18	99.49
808.11	99.657
810.04	99.531
811.97	99.657
813.9	99.502
815.83	99.614
817.75	99.469
819.68	99.623
821.61	99.546
823.54	99.772
825.47	99.76
827.4	100.04
829.33	100.08
831.25	100.39
833.18	100.43
835.11	100.73
837.04	100.74
838.97	101
840.9	100.98
842.83	101.22
844.76	101.17
846.68	101.37
848.61	101.29
850.54	101.44
852.47	101.32
854.4	101.46
856.33	101.32
858.26	101.43
860.18	101.29
862.11	101.42
864.04	101.3
865.97	101.47
867.9	101.37
869.83	101.52
871.76	101.4
873.69	101.55
875.61	101.45
877.54	101.61
879.47	101.5
881.4	101.65
883.33	101.54
885.26	101.7
887.19	101.61
889.11	101.79
891.04	101.73
892.97	101.94
894.9	101.91
896.83	102.15
898.76	102.13
900.69	102.37
902.62	102.34
904.54	102.56
906.47	102.5
908.4	102.68
910.33	102.59
912.26	102.73
914.19	102.61
916.12	102.73
918.04	102.6
919.97	102.71
921.9	102.57
923.83	102.67
925.76	102.52
927.69	102.6
929.62	102.42
931.55	102.49
933.47	102.32
935.4	102.4
937.33	102.24
939.26	102.35
941.19	102.21
943.12	102.33
945.05	102.19
946.97	102.3
948.9	102.16
950.83	102.26
952.76	102.11
954.69	102.18
956.62	102
958.55	102.04
960.48	101.84
962.4	101.88
964.33	101.69
966.26	101.74
968.19	101.55
970.12	101.59
972.05	101.38
973.98	101.36
975.9	101.09
977.83	101.03
979.76	100.73
981.69	100.64
983.62	100.33
985.55	100.25
987.48	99.958
989.41	99.889
991.33	99.597
993.26	99.54
995.19	99.261
997.12	99.19
999.05	98.858
1000.9	98.71
1002.9	98.311
1004.8	98.113
1006.7	97.676
1008.6	97.447
1010.6	97.006
1012.5	96.812
1014.4	96.442
1016.4	96.333
1018.3	96.056
1020.2	96.035
1022.1	95.83
1024.1	95.858
1026	95.686
1027.9	95.734
1029.9	95.577
1031.8	95.632
1033.7	95.485
1035.6	95.557
1037.6	95.436
1039.5	95.533
1041.4	95.432
1043.4	95.537
1045.3	95.436
1047.2	95.531
1049.2	95.419
1051.1	95.5
1053	95.371
1054.9	95.426
1056.9	95.265
1058.8	95.276
1060.7	95.066
1062.7	95.026
1064.6	94.774
1066.5	94.71
1068.4	94.462
1070.4	94.424
1072.3	94.229
1074.2	94.266
1076.2	94.161
1078.1	94.286
1080	94.26
1081.9	94.444
1083.9	94.465
1085.8	94.682
1087.7	94.724
1089.7	94.946
1091.6	94.983
1093.5	95.193
1095.4	95.222
1097.4	95.428
1099.3	95.462
1101.2	95.672
1103.2	95.713
1105.1	95.93
1107	95.981
1108.9	96.2
1110.9	96.238
1112.8	96.424
1114.7	96.425
1116.7	96.583
1118.6	96.578
1120.5	96.746
1122.4	96.768
1124.4	96.973
1126.3	97.037
1128.2	97.275
1130.2	97.361
1132.1	97.604
1134	97.685
1135.9	97.91
1137.9	97.972
1139.8	98.186
1141.7	98.257
1143.7	98.479
1145.6	98.54
1147.5	98.722
1149.4	98.729
1151.4	98.856
1153.3	98.809
1155.2	98.875
1157.2	98.778
1159.1	98.827
1161	98.77
1162.9	98.902
1164.9	98.945
1166.8	99.157
1168.7	99.246
1170.7	99.459
1172.6	99.511
1174.5	99.655
1176.4	99.632
1178.4	99.716
1180.3	99.669
1182.2	99.759
1184.2	99.739
1186.1	99.845
1188	99.812
1189.9	99.872
1191.9	99.788
1193.8	99.811
1195.7	99.716
1197.7	99.742
1199.6	99.66
1201.5	99.703
1203.4	99.646
1205.4	99.714
1207.3	99.683
1209.2	99.775
1211.2	99.77
1213.1	99.875
1215	99.866
1216.9	99.944
1218.9	99.897
1220.8	99.932
1222.7	99.853
1224.7	99.87
1226.6	99.791
1228.5	99.807
1230.4	99.713
1232.4	99.696
1234.3	99.571
1236.2	99.533
1238.2	99.402
1240.1	99.355
1242	99.208
1243.9	99.138
1245.9	98.971
1247.8	98.885
1249.7	98.713
1251.7	98.62
1253.6	98.441
1255.5	98.337
1257.4	98.159
1259.4	98.082
1261.3	97.973
1263.2	97.994
1265.2	97.993
1267.1	98.102
1269	98.156
1270.9	98.278
1272.9	98.319
1274.8	98.42
1276.7	98.455
1278.7	98.56
1280.6	98.605
1282.5	98.717
1284.4	98.768
1286.4	98.883
1288.3	98.939
1290.2	99.05
1292.2	99.103
1294.1	99.212
1296	99.268
1297.9	99.371
1299.9	99.412
1301.8	99.492
1303.7	99.515
1305.7	99.581
1307.6	99.596
1309.5	99.652
1311.5	99.659
1313.4	99.705
1315.3	99.71
1317.2	99.766
1319.2	99.795
1321.1	99.875
1323	99.919
1325	99.992
1326.9	100.01
1328.8	100.06
1330.7	100.06
1332.7	100.08
1334.6	100.06
1336.5	100.05
1338.5	100.01
1340.4	100.01
1342.3	100.01
1344.2	100.05
1346.2	100.05
1348.1	100.05
1350	100.02
1352	100.01
1353.9	99.971
1355.8	99.942
1357.7	99.884
1359.7	99.82
1361.6	99.732
1363.5	99.663
1365.5	99.601
1367.4	99.557
1369.3	99.49
1371.2	99.405
1373.2	99.304
1375.1	99.22
1377	99.154
1379	99.094
1380.9	99.014
1382.8	98.918
1384.7	98.833
1386.7	98.781
1388.6	98.76
1390.5	98.725
1392.5	98.648
1394.4	98.523
1396.3	98.401
1398.2	98.301
1400.2	98.248
1402.1	98.204
1404	98.173
1406	98.129
1407.9	98.106
1409.8	98.079
1411.7	98.072
1413.7	98.037
1415.6	98.007
1417.5	97.959
1419.5	97.959
1421.4	97.978
1423.3	98.048
1425.2	98.092
1427.2	98.143
1429.1	98.152
1431	98.178
1433	98.166
1434.9	98.178
1436.8	98.172
1438.7	98.232
1440.7	98.291
1442.6	98.384
1444.5	98.419
1446.5	98.482
1448.4	98.531
1450.3	98.639
1452.2	98.69
1454.2	98.742
1456.1	98.753
1458	98.869
1460	99.018
1461.9	99.239
1463.8	99.399
1465.7	99.588
1467.7	99.733
1469.6	99.938
1471.5	100.11
1473.5	100.36
1475.4	100.61
1477.3	100.93
1479.2	101.16
1481.2	101.4
1483.1	101.5
1485	101.59
1487	101.58
1488.9	101.61
1490.8	101.64
1492.7	101.77
1494.7	101.83
1496.6	101.93
1498.5	101.96
1500.5	102.08
1502.4	102.1
1504.3	102.09
1506.2	101.94
1508.2	101.9
1510.1	101.89
1512	101.99
1514	101.98
1515.9	101.97
1517.8	101.83
1519.7	101.77
1521.7	101.66
1523.6	101.67
1525.5	101.63
1527.5	101.69
1529.4	101.66
1531.3	101.69
1533.2	101.63
1535.2	101.64
1537.1	101.51
1539	101.4
1541	101.19
1542.9	101.13
1544.8	101.08
1546.7	101.13
1548.7	101.03
1550.6	100.97
1552.5	100.77
1554.5	100.62
1556.4	100.32
1558.3	100.09
1560.2	99.846
1562.2	99.786
1564.1	99.672
1566	99.598
1568	99.361
1569.9	99.185
1571.8	98.915
1573.7	98.727
1575.7	98.425
1577.6	98.227
1579.5	97.97
1581.5	97.838
1583.4	97.598
1585.3	97.422
1587.3	97.128
1589.2	96.938
1591.1	96.659
1593	96.484
1595	96.202
1596.9	96.018
1598.8	95.735
1600.8	95.573
1602.7	95.339
1604.6	95.257
1606.5	95.123
1608.5	95.136
1610.4	95.059
1612.3	95.075
1614.3	94.953
1616.2	94.919
1618.1	94.783
1620	94.776
1622	94.669
1623.9	94.668
1625.8	94.57
1627.8	94.625
1629.7	94.603
1631.6	94.682
1633.5	94.608
1635.5	94.649
1637.4	94.644
1639.3	94.828
1641.3	94.914
1643.2	95.078
1645.1	95.096
1647	95.237
1649	95.28
1650.9	95.449
1652.8	95.518
1654.8	95.755
1656.7	95.928
1658.6	96.239
1660.5	96.403
1662.5	96.654
1664.4	96.772
1666.3	97.012
1668.3	97.127
1670.2	97.361
1672.1	97.489
1674	97.771
1676	97.952
1677.9	98.244
1679.8	98.37
1681.8	98.582
1683.7	98.668
1685.6	98.921
1687.5	99.109
1689.5	99.447
1691.4	99.628
1693.3	99.861
1695.3	99.905
1697.2	100.05
1699.1	100.09
1701	100.28
1703	100.34
1704.9	100.51
1706.8	100.56
1708.8	100.73
1710.7	100.76
1712.6	100.87
1714.5	100.8
1716.5	100.87
1718.4	100.87
1720.3	101.06
1722.3	101.13
1724.2	101.29
1726.1	101.25
1728	101.27
1730	101.12
1731.9	101.1
1733.8	101
1735.8	101.1
1737.7	101.17
1739.6	101.43
1741.5	101.61
1743.5	101.96
1745.4	102.19
1747.3	102.56
1749.3	102.79
1751.2	103.17
1753.1	103.43
1755	103.79
1757	103.97
1758.9	104.22
1760.8	104.31
1762.8	104.53
1764.7	104.62
1766.6	104.81
1768.5	104.81
1770.5	104.91
1772.4	104.89
1774.3	105.04
1776.3	105.09
1778.2	105.26
1780.1	105.28
1782	105.4
1784	105.41
1785.9	105.56
1787.8	105.55
1789.8	105.63
1791.7	105.57
1793.6	105.66
1795.5	105.65
1797.5	105.78
1799.4	105.77
1801.3	105.88
1803.3	105.88
1805.2	106.01
1807.1	106
1809	106.11
1811	106.07
1812.9	106.17
1814.8	106.16
1816.8	106.28
1818.7	106.26
1820.6	106.35
1822.5	106.31
1824.5	106.39
1826.4	106.33
1828.3	106.39
1830.3	106.35
1832.2	106.45
1834.1	106.44
1836	106.56
1838	106.54
1839.9	106.62
1841.8	106.54
1843.8	106.58
1845.7	106.51
1847.6	106.61
1849.6	106.6
1851.5	106.72
1853.4	106.7
1855.3	106.78
1857.3	106.72
1859.2	106.8
1861.1	106.75
1863.1	106.83
1865	106.75
1866.9	106.78
1868.8	106.71
1870.8	106.79
1872.7	106.78
1874.6	106.89
1876.6	106.86
1878.5	106.94
1880.4	106.9
1882.3	106.97
1884.3	106.92
1886.2	106.98
1888.1	106.91
1890.1	106.97
1892	106.91
1893.9	106.98
1895.8	106.93
1897.8	107
1899.7	106.96
1901.6	107.03
1903.6	106.98
1905.5	107.04
1907.4	106.97
1909.3	107.02
1911.3	106.97
1913.2	107.03
1915.1	106.98
1917.1	107.04
1919	106.97
1920.9	107.02
1922.8	106.96
1924.8	107.03
1926.7	106.98
1928.6	107.05
1930.6	107
1932.5	107.05
1934.4	106.99
1936.3	107.05
1938.3	107
1940.2	107.04
1942.1	106.96
1944.1	107
1946	106.95
1947.9	107.02
1949.8	106.97
1951.8	107.02
1953.7	106.96
1955.6	107.01
1957.6	106.96
1959.5	107.02
1961.4	106.96
1963.3	107
1965.3	106.94
1967.2	106.97
1969.1	106.92
1971.1	106.97
1973	106.92
1974.9	106.97
1976.8	106.92
1978.8	106.97
1980.7	106.92
1982.6	106.96
1984.6	106.9
1986.5	106.94
1988.4	106.87
1990.3	106.9
1992.3	106.83
1994.2	106.88
1996.1	106.83
1998.1	106.88
2000	106.84
2001.9	106.88
2003.8	106.82
2005.8	106.86
2007.7	106.8
2009.6	106.84
2011.6	106.79
2013.5	106.82
2015.4	106.76
2017.3	106.78
2019.3	106.72
2021.2	106.76
2023.1	106.71
2025.1	106.75
2027	106.7
2028.9	106.73
2030.8	106.68
2032.8	106.71
2034.7	106.66
2036.6	106.69
2038.6	106.64
2040.5	106.67
2042.4	106.62
2044.3	106.66
2046.3	106.62
2048.2	106.65
2050.1	106.61
2052.1	106.63
2054	106.58
2055.9	106.6
2057.8	106.56
2059.8	106.59
2061.7	106.55
2063.6	106.57
2065.6	106.53
2067.5	106.56
2069.4	106.52
2071.3	106.55
2073.3	106.51
2075.2	106.54
2077.1	106.5
2079.1	106.53
2081	106.5
2082.9	106.52
2084.9	106.48
2086.8	106.5
2088.7	106.47
2090.6	106.5
2092.6	106.47
2094.5	106.49
2096.4	106.46
2098.4	106.47
2100.3	106.44
2102.2	106.46
2104.1	106.43
2106.1	106.45
2108	106.43
2109.9	106.45
2111.9	106.42
2113.8	106.43
2115.7	106.41
2117.6	106.43
2119.6	106.41
2121.5	106.43
2123.4	106.41
2125.4	106.43
2127.3	106.41
2129.2	106.42
2131.1	106.4
2133.1	106.42
2135	106.4
2136.9	106.42
2138.9	106.41
2140.8	106.43
2142.7	106.41
2144.6	106.43
2146.6	106.42
2148.5	106.44
2150.4	106.42
2152.4	106.43
2154.3	106.42
2156.2	106.44
2158.1	106.43
2160.1	106.44
2162	106.43
2163.9	106.44
2165.9	106.44
2167.8	106.45
2169.7	106.45
2171.6	106.46
2173.6	106.45
2175.5	106.46
2177.4	106.45
2179.4	106.47
2181.3	106.47
2183.2	106.48
2185.1	106.49
2187.1	106.5
2189	106.5
2190.9	106.51
2192.9	106.51
2194.8	106.52
2196.7	106.53
2198.6	106.53
2200.6	106.54
2202.5	106.54
2204.4	106.55
2206.4	106.56
2208.3	106.56
2210.2	106.56
2212.1	106.57
2214.1	106.57
2216	106.57
2217.9	106.58
2219.9	106.58
2221.8	106.57
2223.7	106.56
2225.6	106.54
2227.6	106.55
2229.5	106.55
2231.4	106.57
2233.4	106.6
2235.3	106.63
2237.2	106.64
2239.1	106.66
2241.1	106.66
2243	106.67
2244.9	106.67
2246.9	106.69
2248.8	106.69
2250.7	106.7
2252.6	106.7
2254.6	106.71
2256.5	106.71
2258.4	106.72
2260.4	106.71
2262.3	106.72
2264.2	106.71
2266.1	106.72
2268.1	106.71
2270	106.73
2271.9	106.72
2273.9	106.73
2275.8	106.72
2277.7	106.74
2279.6	106.73
2281.6	106.75
2283.5	106.74
2285.4	106.75
2287.4	106.73
2289.3	106.75
2291.2	106.72
2293.1	106.74
2295.1	106.72
2297	106.73
2298.9	106.71
2300.9	106.72
2302.8	106.7
2304.7	106.72
2306.6	106.69
2308.6	106.71
2310.5	106.68
2312.4	106.7
2314.4	106.67
2316.3	106.69
2318.2	106.66
2320.1	106.68
2322.1	106.65
2324	106.67
2325.9	106.64
2327.9	106.67
2329.8	106.63
2331.7	106.66
2333.6	106.62
2335.6	106.65
2337.5	106.61
2339.4	106.64
2341.4	106.6
2343.3	106.63
2345.2	106.6
2347.2	106.62
2349.1	106.59
2351	106.61
2352.9	106.58
2354.9	106.61
2356.8	106.57
2358.7	106.6
2360.7	106.56
2362.6	106.59
2364.5	106.55
2366.4	106.58
2368.4	106.54
2370.3	106.57
2372.2	106.53
2374.2	106.56
2376.1	106.52
2378	106.55
2379.9	106.51
2381.9	106.54
2383.8	106.5
2385.7	106.54
2387.7	106.49
2389.6	106.53
2391.5	106.48
2393.4	106.52
2395.4	106.47
2397.3	106.51
2399.2	106.46
2401.2	106.5
2403.1	106.45
2405	106.49
2406.9	106.44
2408.9	106.48
2410.8	106.43
2412.7	106.47
2414.7	106.42
2416.6	106.46
2418.5	106.41
2420.4	106.44
2422.4	106.38
2424.3	106.41
2426.2	106.35
2428.2	106.38
2430.1	106.32
2432	106.35
2433.9	106.27
2435.9	106.3
2437.8	106.23
2439.7	106.27
2441.7	106.21
2443.6	106.24
2445.5	106.17
2447.4	106.2
2449.4	106.14
2451.3	106.17
2453.2	106.1
2455.2	106.13
2457.1	106.06
2459	106.09
2460.9	106.02
2462.9	106.05
2464.8	105.97
2466.7	106
2468.7	105.93
2470.6	105.96
2472.5	105.88
2474.4	105.91
2476.4	105.84
2478.3	105.87
2480.2	105.79
2482.2	105.82
2484.1	105.74
2486	105.77
2487.9	105.69
2489.9	105.71
2491.8	105.63
2493.7	105.66
2495.7	105.58
2497.6	105.61
2499.5	105.54
2501.4	105.58
2503.4	105.5
2505.3	105.53
2507.2	105.44
2509.2	105.47
2511.1	105.39
2513	105.43
2514.9	105.34
2516.9	105.37
2518.8	105.29
2520.7	105.33
2522.7	105.25
2524.6	105.28
2526.5	105.2
2528.4	105.23
2530.4	105.15
2532.3	105.19
2534.2	105.1
2536.2	105.14
2538.1	105.05
2540	105.09
2541.9	105
2543.9	105.04
2545.8	104.95
2547.7	104.99
2549.7	104.9
2551.6	104.94
2553.5	104.86
2555.4	104.9
2557.4	104.82
2559.3	104.86
2561.2	104.78
2563.2	104.81
2565.1	104.72
2567	104.76
2568.9	104.67
2570.9	104.71
2572.8	104.63
2574.7	104.67
2576.7	104.58
2578.6	104.62
2580.5	104.53
2582.4	104.57
2584.4	104.49
2586.3	104.53
2588.2	104.44
2590.2	104.47
2592.1	104.37
2594	104.41
2595.9	104.31
2597.9	104.35
2599.8	104.26
2601.7	104.31
2603.7	104.22
2605.6	104.26
2607.5	104.16
2609.4	104.2
2611.4	104.11
2613.3	104.14
2615.2	104.05
2617.2	104.08
2619.1	103.98
2621	104.02
2623	103.93
2624.9	103.97
2626.8	103.87
2628.7	103.9
2630.7	103.8
2632.6	103.84
2634.5	103.74
2636.5	103.79
2638.4	103.7
2640.3	103.74
2642.2	103.65
2644.2	103.68
2646.1	103.58
2648	103.61
2650	103.53
2651.9	103.57
2653.8	103.48
2655.7	103.51
2657.7	103.41
2659.6	103.45
2661.5	103.35
2663.5	103.39
2665.4	103.3
2667.3	103.34
2669.2	103.25
2671.2	103.28
2673.1	103.19
2675	103.23
2677	103.14
2678.9	103.17
2680.8	103.08
2682.7	103.12
2684.7	103.03
2686.6	103.07
2688.5	102.98
2690.5	103.01
2692.4	102.93
2694.3	102.98
2696.2	102.9
2698.2	102.94
2700.1	102.85
2702	102.89
2704	102.79
2705.9	102.83
2707.8	102.75
2709.7	102.79
2711.7	102.7
2713.6	102.75
2715.5	102.67
2717.5	102.71
2719.4	102.64
2721.3	102.68
2723.2	102.59
2725.2	102.63
2727.1	102.54
2729	102.58
2731	102.49
2732.9	102.53
2734.8	102.46
2736.7	102.5
2738.7	102.43
2740.6	102.48
2742.5	102.41
2744.5	102.45
2746.4	102.37
2748.3	102.41
2750.2	102.33
2752.2	102.37
2754.1	102.29
2756	102.33
2758	102.26
2759.9	102.3
2761.8	102.23
2763.7	102.27
2765.7	102.18
2767.6	102.22
2769.5	102.14
2771.5	102.17
2773.4	102.09
2775.3	102.13
2777.2	102.04
2779.2	102.07
2781.1	101.98
2783	102.01
2785	101.92
2786.9	101.94
2788.8	101.85
2790.7	101.87
2792.7	101.78
2794.6	101.8
2796.5	101.71
2798.5	101.72
2800.4	101.63
2802.3	101.64
2804.2	101.55
2806.2	101.57
2808.1	101.47
2810	101.48
2812	101.38
2813.9	101.39
2815.8	101.3
2817.7	101.3
2819.7	101.2
2821.6	101.18
2823.5	101.05
2825.5	101.03
2827.4	100.91
2829.3	100.88
2831.2	100.76
2833.2	100.72
2835.1	100.56
2837	100.48
2839	100.27
2840.9	100.12
2842.8	99.831
2844.7	99.581
2846.7	99.202
2848.6	98.929
2850.5	98.639
2852.5	98.558
2854.4	98.507
2856.3	98.635
2858.2	98.723
2860.2	98.909
2862.1	98.993
2864	99.127
2866	99.132
2867.9	99.18
2869.8	99.12
2871.7	99.14
2873.7	99.087
2875.6	99.122
2877.5	99.067
2879.5	99.074
2881.4	98.984
2883.3	98.961
2885.2	98.854
2887.2	98.813
2889.1	98.683
2891	98.62
2893	98.48
2894.9	98.415
2896.8	98.276
2898.8	98.201
2900.7	98.045
2902.6	97.948
2904.5	97.768
2906.5	97.632
2908.4	97.39
2910.3	97.158
2912.3	96.802
2914.2	96.469
2916.1	96.074
2918	95.795
2920	95.543
2921.9	95.455
2923.8	95.403
2925.8	95.492
2927.7	95.587
2929.6	95.781
2931.5	95.943
2933.5	96.17
2935.4	96.349
2937.3	96.581
2939.3	96.752
2941.2	96.957
2943.1	97.089
2945	97.238
2947	97.303
2948.9	97.377
2950.8	97.376
2952.8	97.405
2954.7	97.391
2956.6	97.43
2958.5	97.445
2960.5	97.523
2962.4	97.585
2964.3	97.704
2966.3	97.796
2968.2	97.932
2970.1	98.037
2972	98.177
2974	98.273
2975.9	98.38
2977.8	98.431
2979.8	98.494
2981.7	98.518
2983.6	98.566
2985.5	98.584
2987.5	98.622
2989.4	98.628
2991.3	98.646
2993.3	98.63
2995.2	98.628
2997.1	98.6
2999	98.586
3001	98.547
3002.9	98.523
3004.8	98.484
3006.8	98.462
3008.7	98.427
3010.6	98.399
3012.5	98.353
3014.5	98.312
3016.4	98.259
3018.3	98.215
3020.3	98.161
3022.2	98.111
3024.1	98.053
3026	97.994
3028	97.931
3029.9	97.872
3031.8	97.819
3033.8	97.772
3035.7	97.73
3037.6	97.68
3039.5	97.626
3041.5	97.558
3043.4	97.496
3045.3	97.427
3047.3	97.37
3049.2	97.302
3051.1	97.245
3053	97.174
3055	97.116
3056.9	97.041
3058.8	96.981
3060.8	96.903
3062.7	96.843
3064.6	96.762
3066.5	96.702
3068.5	96.62
3070.4	96.561
3072.3	96.479
3074.3	96.423
3076.2	96.341
3078.1	96.288
3080	96.206
3082	96.153
3083.9	96.063
3085.8	96.005
3087.8	95.913
3089.7	95.857
3091.6	95.761
3093.5	95.697
3095.5	95.591
3097.4	95.526
3099.3	95.422
3101.3	95.364
3103.2	95.262
3105.1	95.206
3107	95.103
3109	95.047
3110.9	94.943
3112.8	94.888
3114.8	94.777
3116.7	94.714
3118.6	94.597
3120.5	94.542
3122.5	94.433
3124.4	94.381
3126.3	94.265
3128.3	94.211
3130.2	94.094
3132.1	94.035
3134	93.903
3136	93.836
3137.9	93.708
3139.8	93.656
3141.8	93.535
3143.7	93.479
3145.6	93.347
3147.5	93.288
3149.5	93.156
3151.4	93.102
3153.3	92.967
3155.3	92.908
3157.2	92.767
3159.1	92.706
3161.1	92.559
3163	92.49
3164.9	92.331
3166.8	92.263
3168.8	92.117
3170.7	92.066
3172.6	91.92
3174.6	91.854
3176.5	91.69
3178.4	91.62
3180.3	91.461
3182.3	91.404
3184.2	91.252
3186.1	91.199
3188.1	91.044
3190	90.988
3191.9	90.829
3193.8	90.77
3195.8	90.604
3197.7	90.543
3199.6	90.378
3201.6	90.33
3203.5	90.179
3205.4	90.14
3207.3	89.981
3209.3	89.926
3211.2	89.751
3213.1	89.691
3215.1	89.518
3217	89.469
3218.9	89.307
3220.8	89.273
3222.8	89.119
3224.7	89.086
3226.6	88.921
3228.6	88.879
3230.5	88.709
3232.4	88.673
3234.3	88.511
3236.3	88.483
3238.2	88.321
3240.1	88.293
3242.1	88.131
3244	88.105
3245.9	87.941
3247.8	87.915
3249.8	87.753
3251.7	87.737
3253.6	87.581
3255.6	87.567
3257.5	87.407
3259.4	87.394
3261.3	87.236
3263.3	87.228
3265.2	87.07
3267.1	87.058
3269.1	86.889
3271	86.869
3272.9	86.696
3274.8	86.685
3276.8	86.525
3278.7	86.529
3280.6	86.372
3282.6	86.368
3284.5	86.194
3286.4	86.178
3288.3	86.002
3290.3	85.998
3292.2	85.832
3294.1	85.832
3296.1	85.66
3298	85.658
3299.9	85.489
3301.8	85.491
3303.8	85.315
3305.7	85.303
3307.6	85.11
3309.6	85.096
3311.5	84.91
3313.4	84.905
3315.3	84.715
3317.3	84.699
3319.2	84.498
3321.1	84.485
3323.1	84.292
3325	84.285
3326.9	84.093
3328.8	84.087
3330.8	83.893
3332.7	83.887
3334.6	83.687
3336.6	83.673
3338.5	83.462
3340.4	83.442
3342.3	83.229
3344.3	83.218
3346.2	83.015
3348.1	83.012
3350.1	82.813
3352	82.817
3353.9	82.617
3355.8	82.616
3357.8	82.409
3359.7	82.412
3361.6	82.217
3363.6	82.231
3365.5	82.034
3367.4	82.046
3369.3	81.854
3371.3	81.881
3373.2	81.698
3375.1	81.727
3377.1	81.542
3379	81.574
3380.9	81.392
3382.8	81.426
3384.8	81.245
3386.7	81.291
3388.6	81.126
3390.6	81.187
3392.5	81.025
3394.4	81.082
3396.3	80.916
3398.3	80.975
3400.2	80.816
3402.1	80.89
3404.1	80.75
3406	80.846
3407.9	80.718
3409.8	80.816
3411.8	80.678
3413.7	80.77
3415.6	80.635
3417.6	80.741
3419.5	80.619
3421.4	80.732
3423.4	80.611
3425.3	80.73
3427.2	80.619
3429.1	80.754
3431.1	80.654
3433	80.796
3434.9	80.696
3436.9	80.836
3438.8	80.734
3440.7	80.878
3442.6	80.787
3444.6	80.949
3446.5	80.875
3448.4	81.054
3450.4	80.995
3452.3	81.192
3454.2	81.145
3456.1	81.346
3458.1	81.294
3460	81.488
3461.9	81.432
3463.9	81.634
3465.8	81.596
3467.7	81.815
3469.6	81.778
3471.6	81.986
3473.5	81.939
3475.4	82.156
3477.4	82.125
3479.3	82.355
3481.2	82.327
3483.1	82.562
3485.1	82.544
3487	82.79
3488.9	82.775
3490.9	83.016
3492.8	82.993
3494.7	83.234
3496.6	83.216
3498.6	83.462
3500.5	83.443
3502.4	83.691
3504.4	83.681
3506.3	83.942
3508.2	83.937
3510.1	84.196
3512.1	84.193
3514	84.468
3515.9	84.481
3517.9	84.756
3519.8	84.745
3521.7	84.987
3523.6	84.952
3525.6	85.196
3527.5	85.194
3529.4	85.491
3531.4	85.525
3533.3	85.817
3535.2	85.819
3537.1	86.096
3539.1	86.111
3541	86.401
3542.9	86.396
3544.9	86.646
3546.8	86.623
3548.7	86.903
3550.6	86.929
3552.6	87.233
3554.5	87.25
3556.4	87.541
3558.4	87.565
3560.3	87.881
3562.2	87.91
3564.1	88.185
3566.1	88.15
3568	88.408
3569.9	88.438
3571.9	88.796
3573.8	88.874
3575.7	89.2
3577.6	89.225
3579.6	89.544
3581.5	89.592
3583.4	89.898
3585.4	89.88
3587.3	90.132
3589.2	90.134
3591.1	90.46
3593.1	90.512
3595	90.826
3596.9	90.836
3598.9	91.139
3600.8	91.186
3602.7	91.544
3604.6	91.613
3606.6	91.934
3608.5	91.931
3610.4	92.212
3612.4	92.245
3614.3	92.594
3616.2	92.642
3618.1	92.938
3620.1	92.951
3622	93.299
3623.9	93.394
3625.9	93.732
3627.8	93.702
3629.7	93.929
3631.6	93.929
3633.6	94.297
3635.5	94.402
3637.4	94.763
3639.4	94.825
3641.3	95.2
3643.2	95.29
3645.1	95.588
3647.1	95.484
3649	95.629
3650.9	95.578
3652.9	95.947
3654.8	96.088
3656.7	96.474
3658.6	96.521
3660.6	96.857
3662.5	96.935
3664.4	97.282
3666.4	97.275
3668.3	97.494
3670.2	97.421
3672.1	97.656
3674.1	97.606
3676	97.824
3677.9	97.769
3679.9	98.064
3681.8	98.146
3683.7	98.516
3685.6	98.514
3687.6	98.677
3689.5	98.495
3691.4	98.638
3693.4	98.6
3695.3	98.919
3697.2	98.935
3699.2	99.152
3701.1	99.03
3703	99.217
3704.9	99.182
3706.9	99.426
3708.8	99.303
3710.7	99.381
3712.7	99.198
3714.6	99.396
3716.5	99.393
3718.4	99.659
3720.4	99.562
3722.3	99.668
3724.2	99.484
3726.2	99.649
3728.1	99.623
3730	99.882
3731.9	99.753
3733.9	99.775
3735.8	99.515
3737.7	99.669
3739.7	99.684
3741.6	99.983
3743.5	99.914
3745.4	100.03
3747.4	99.843
3749.3	99.923
3751.2	99.743
3753.2	99.884
3755.1	99.818
3757	100.05
3758.9	99.984
3760.9	100.16
3762.8	100.09
3764.7	100.29
3766.7	100.18
3768.6	100.3
3770.5	100.15
3772.4	100.31
3774.4	100.25
3776.3	100.44
3778.2	100.31
3780.2	100.42
3782.1	100.27
3784	100.4
3785.9	100.28
3787.9	100.42
3789.8	100.31
3791.7	100.49
3793.7	100.39
3795.6	100.52
3797.5	100.34
3799.4	100.41
3801.4	100.23
3803.3	100.33
3805.2	100.2
3807.2	100.36
3809.1	100.3
3811	100.52
3812.9	100.47
3814.9	100.62
3816.8	100.43
3818.7	100.44
3820.7	100.2
3822.6	100.27
3824.5	100.18
3826.4	100.38
3828.4	100.35
3830.3	100.54
3832.2	100.45
3834.2	100.55
3836.1	100.35
3838	100.36
3839.9	100.14
3841.9	100.23
3843.8	100.16
3845.7	100.43
3847.7	100.49
3849.6	100.69
3851.5	100.46
3853.4	100.36
3855.4	100.08
3857.3	100.2
3859.2	100.21
3861.2	100.42
3863.1	100.31
3865	100.4
3866.9	100.26
3868.9	100.36
3870.8	100.2
3872.7	100.27
3874.7	100.16
3876.6	100.35
3878.5	100.31
3880.4	100.42
3882.4	100.23
3884.3	100.3
3886.2	100.19
3888.2	100.3
3890.1	100.17
3892	100.26
3893.9	100.18
3895.9	100.35
3897.8	100.28
3899.7	100.35
3901.7	100.12
3903.6	100.09
3905.5	99.926
3907.4	100.07
3909.4	100.07
3911.3	100.27
3913.2	100.2
3915.2	100.29
3917.1	100.16
3919	100.22
3920.9	100.07
3922.9	100.15
3924.8	100.04
3926.7	100.13
3928.7	99.997
3930.6	100.06
3932.5	99.944
3934.4	100.03
3936.4	99.939
3938.3	100.05
3940.2	99.957
3942.2	99.997
3944.1	99.821
3946	99.875
3947.9	99.774
3949.9	99.827
3951.8	99.659
3953.7	99.716
3955.7	99.635
3957.6	99.697
3959.5	99.523
3961.5	99.558
3963.4	99.463
3965.3	99.497
3967.2	99.29
3969.2	99.314
3971.1	99.234
3973	99.236
3975	98.948
3976.9	98.911
3978.8	98.821
3980.7	98.729
3982.7	98.235
3984.6	98.059
3986.5	97.967
3988.5	97.62
3990.4	96.403
3992.3	95.669
3994.2	95.591
3996.2	93.404
3998.1	83.147
4000	62.875
